Point,Time (s),Temperature (K)
0,1.200000e-02,7.983839
1,2.590000e-01,7.980704
2,5.090000e-01,7.976309
3,7.590000e-01,7.970210
4,1.016000e+00,7.966949
5,1.260000e+00,7.973388
6,1.511000e+00,7.976336
7,1.760000e+00,7.980215
8,2.013000e+00,7.977893
9,2.260000e+00,7.971229
10,2.511000e+00,7.970260
11,2.759000e+00,7.973002
12,3.015000e+00,8.017727
13,3.259000e+00,8.074389
14,3.510000e+00,8.143032
15,3.761000e+00,8.218885
16,4.012000e+00,8.355065
17,4.262000e+00,8.460578
18,4.511000e+00,8.574494
19,4.760000e+00,8.690872
20,5.011000e+00,8.870253
21,5.258000e+00,8.990674
22,5.511000e+00,9.108381
23,5.759000e+00,9.225906
24,6.010000e+00,9.398783
25,6.261000e+00,9.512120
26,6.512000e+00,9.626375
27,6.760000e+00,9.739758
28,7.010000e+00,9.894023
29,7.261000e+00,9.988425
30,7.517000e+00,10.078370
31,7.767000e+00,10.160645
32,8.014000e+00,10.275921
33,8.263000e+00,10.345798
34,8.512000e+00,10.410406
35,8.763000e+00,10.467411
36,9.013000e+00,10.534781
37,9.263000e+00,10.566619
38,9.511000e+00,10.591581
39,9.763000e+00,10.613723
40,1.000900e+01,10.643272
41,1.026300e+01,10.654035
42,1.050900e+01,10.656653
43,1.076200e+01,10.652274
44,1.102600e+01,10.643390
45,1.126000e+01,10.628549
46,1.151000e+01,10.608339
47,1.176000e+01,10.570579
48,1.200800e+01,10.537315
49,1.225800e+01,10.502115
50,1.251000e+01,10.466421
51,1.276000e+01,10.400558
52,1.300900e+01,10.354837
53,1.326200e+01,10.305835
54,1.351100e+01,10.258754
55,1.376100e+01,10.192377
56,1.400800e+01,10.152072
57,1.425800e+01,10.111061
58,1.451000e+01,10.069158
59,1.475800e+01,10.012432
60,1.500800e+01,9.980839
61,1.527100e+01,9.948540
62,1.551600e+01,9.919321
63,1.575900e+01,9.880186
64,1.600900e+01,9.854069
65,1.625800e+01,9.832058
66,1.651400e+01,9.814910
67,1.675900e+01,9.796058
68,1.700900e+01,9.787494
69,1.725800e+01,9.780069
70,1.751500e+01,9.778530
71,1.776000e+01,9.784754
72,1.801000e+01,9.793308
73,1.826000e+01,9.802723
74,1.850900e+01,9.819541
75,1.875800e+01,9.835875
76,1.900800e+01,9.853332
77,1.925800e+01,9.871375
78,1.951200e+01,9.890469
79,1.976100e+01,9.906554
80,2.001000e+01,9.929829
81,2.026100e+01,9.951868
82,2.050700e+01,9.977834
83,2.076100e+01,9.992910
84,2.100800e+01,10.009085
85,2.126200e+01,10.026918
86,2.150800e+01,10.055291
87,2.175800e+01,10.070851
88,2.200900e+01,10.084843
89,2.225900e+01,10.095982
90,2.250900e+01,10.117934
91,2.275900e+01,10.128754
92,2.300800e+01,10.137741
93,2.326200e+01,10.143807
94,2.350900e+01,10.149467
95,2.375800e+01,10.152052
96,2.400800e+01,10.156815
97,2.428000e+01,10.157451
98,2.450900e+01,10.155351
99,2.475900e+01,10.151992
100,2.500900e+01,10.149508
101,2.526100e+01,10.148831
102,2.550900e+01,10.146945
103,2.575800e+01,10.141086
104,2.601000e+01,10.132854
105,2.626000e+01,10.115390
106,2.650900e+01,10.107235
107,2.675800e+01,10.097594
108,2.700900e+01,10.088476
109,2.725900e+01,10.077055
110,2.750900e+01,10.072996
111,2.775800e+01,10.069009
112,2.800800e+01,10.066372
113,2.825900e+01,10.060620
114,2.852100e+01,10.052649
115,2.875800e+01,10.044422
116,2.901200e+01,10.034030
117,2.926000e+01,10.015674
118,2.950800e+01,10.009176
119,2.975800e+01,10.004561
120,3.001400e+01,10.001514
121,3.025700e+01,9.997551
122,3.050900e+01,9.993327
123,3.075800e+01,9.989359
124,3.101300e+01,9.987809
125,3.126000e+01,9.985051
126,3.151000e+01,9.982197
127,3.175800e+01,9.983696
128,3.201400e+01,9.986557
129,3.225800e+01,9.985705
130,3.250800e+01,9.983219
131,3.276000e+01,9.979279
132,3.300900e+01,9.966882
133,3.325900e+01,9.959126
134,3.350900e+01,9.955201
135,3.376000e+01,9.957219
136,3.401100e+01,9.971690
137,3.426100e+01,9.981325
138,3.450800e+01,9.987335
139,3.475700e+01,9.992005
140,3.500900e+01,9.992047
141,3.525700e+01,9.991088
142,3.550900e+01,9.989320
143,3.576000e+01,9.990860
144,3.601000e+01,9.992873
145,3.625700e+01,9.994572
146,3.650800e+01,9.998985
147,3.675800e+01,10.002651
148,3.700900e+01,10.002161
149,3.725800e+01,10.000497
150,3.752600e+01,10.004360
151,3.776300e+01,10.004730
152,3.801000e+01,10.004702
153,3.826100e+01,10.007502
154,3.851000e+01,10.011949
155,3.877200e+01,10.015667
156,3.900900e+01,10.016748
157,3.926100e+01,10.017568
158,3.951100e+01,10.022696
159,3.976000e+01,10.026978
160,4.001100e+01,10.030326
161,4.025900e+01,10.030207
162,4.051000e+01,10.026557
163,4.075900e+01,10.022750
164,4.100800e+01,10.021758
165,4.125800e+01,10.022833
166,4.150800e+01,10.025542
167,4.177000e+01,10.023806
168,4.200800e+01,10.020335
169,4.226000e+01,10.019257
170,4.250800e+01,10.019044
171,4.276000e+01,10.018649
172,4.301200e+01,10.014978
173,4.325800e+01,10.008859
174,4.351200e+01,10.000710
175,4.376100e+01,9.997290
176,4.400900e+01,9.998748
177,4.426400e+01,9.998812
178,4.451500e+01,9.996934
179,4.476100e+01,9.988146
180,4.500800e+01,9.980883
181,4.526000e+01,9.979628
182,4.551200e+01,9.978918
183,4.576300e+01,9.978702
184,4.601400e+01,9.981447
185,4.626100e+01,9.985885
186,4.651200e+01,9.990974
187,4.675800e+01,9.996403
188,4.700800e+01,10.001984
189,4.725800e+01,10.006950
190,4.751100e+01,10.016778
191,4.775800e+01,10.025105
192,4.801100e+01,10.029223
193,4.826100e+01,10.027714
194,4.850900e+01,10.019416
195,4.876000e+01,10.015254
196,4.900900e+01,10.010961
197,4.925900e+01,10.003889
198,4.950900e+01,9.997025
199,4.975800e+01,9.996000
200,5.001100e+01,9.994107
201,5.025800e+01,9.994234
202,5.051000e+01,9.992501
203,5.077600e+01,9.989182
204,5.101300e+01,9.988033
205,5.125800e+01,9.990209
206,5.151100e+01,9.987878
207,5.176000e+01,9.989961
208,5.200700e+01,9.996308
209,5.226300e+01,10.001439
210,5.251000e+01,10.011299
211,5.276400e+01,10.013329
212,5.300800e+01,10.010174
213,5.326400e+01,10.001416
214,5.350800e+01,9.994919
215,5.375900e+01,9.992052
216,5.401000e+01,9.988854
217,5.426500e+01,9.982649
218,5.450900e+01,9.984336
219,5.477000e+01,9.984697
220,5.502800e+01,9.984680
221,5.527100e+01,9.984236
222,5.551400e+01,9.985810
223,5.576600e+01,9.988538
224,5.601400e+01,9.994419
225,5.625900e+01,9.996991
226,5.651400e+01,9.994074
227,5.676500e+01,9.996199
228,5.700800e+01,9.999081
229,5.726100e+01,10.003738
230,5.751200e+01,10.007009
231,5.776000e+01,10.008321
232,5.801100e+01,10.007309
233,5.825900e+01,10.002800
234,5.851300e+01,10.002436
235,5.875800e+01,9.995301
236,5.901300e+01,9.985034
237,5.926000e+01,9.978083
238,5.951200e+01,9.981611
239,5.976300e+01,9.986244
240,6.001300e+01,9.993614
241,6.026200e+01,10.003478
242,6.051000e+01,10.005695
243,6.076300e+01,10.006224
244,6.101700e+01,10.001233
245,6.126500e+01,9.999471
246,6.151000e+01,10.002656
247,6.176300e+01,10.003067
248,6.201600e+01,10.002011
249,6.226100e+01,10.002081
250,6.251000e+01,9.999698
251,6.276300e+01,10.000155
252,6.301000e+01,10.004936
253,6.326300e+01,10.001805
254,6.351000e+01,9.999318
255,6.377300e+01,9.998124
256,6.402600e+01,10.006193
257,6.425900e+01,10.011600
258,6.451100e+01,10.016075
259,6.476200e+01,10.017827
260,6.501000e+01,10.016001
261,6.526000e+01,10.011392
262,6.551100e+01,10.005152
263,6.576600e+01,10.002187
264,6.601000e+01,9.998554
265,6.626100e+01,9.996631
266,6.650800e+01,9.989846
267,6.676300e+01,9.980044
268,6.700800e+01,9.977291
269,6.725800e+01,9.979465
270,6.751300e+01,9.984307
271,6.776700e+01,9.986687
272,6.801300e+01,9.983782
273,6.827100e+01,9.982512
274,6.850900e+01,9.982467
275,6.876400e+01,9.983274
276,6.900900e+01,9.982519
277,6.926200e+01,9.985077
278,6.951600e+01,9.991606
279,6.976800e+01,10.009775
280,7.001400e+01,10.020326
281,7.026100e+01,10.024992
282,7.051100e+01,10.025090
283,7.076100e+01,10.025556
284,7.101000e+01,10.023759
285,7.125900e+01,10.020387
286,7.150800e+01,10.020910
287,7.175900e+01,10.024660
288,7.200900e+01,10.027053
289,7.226200e+01,10.019793
290,7.251700e+01,10.007955
291,7.276100e+01,9.997646
292,7.301000e+01,9.996709
293,7.325900e+01,9.999355
294,7.351400e+01,10.004304
295,7.376200e+01,10.005137
296,7.401100e+01,10.001564
297,7.425800e+01,9.999027
298,7.451400e+01,9.997710
299,7.476400e+01,9.994871
300,7.501300e+01,9.992728
301,7.526100e+01,9.994175
302,7.551700e+01,10.004601
303,7.576100e+01,10.003395
304,7.601400e+01,10.000877
305,7.625900e+01,9.999036
306,7.651500e+01,10.002207
307,7.676000e+01,10.006617
308,7.701300e+01,10.008701
309,7.727600e+01,10.011138
310,7.751400e+01,10.014243
311,7.776100e+01,10.015171
312,7.801500e+01,10.011402
313,7.826100e+01,10.007063
314,7.851300e+01,10.002449
315,7.876500e+01,9.996722
316,7.901200e+01,9.992012
317,7.926100e+01,9.990502
