Point,Time (s),Temperature (K)
0,1.000000e-02,7.841915
1,2.600000e-01,7.843890
2,5.110000e-01,7.857069
3,7.600000e-01,7.865376
4,1.010000e+00,7.867174
5,1.261000e+00,7.867300
6,1.510000e+00,7.867399
7,1.758000e+00,7.868490
8,2.010000e+00,7.870043
9,2.260000e+00,7.872157
10,2.508000e+00,7.872238
11,2.759000e+00,7.868905
12,3.010000e+00,7.866672
13,3.259000e+00,7.866833
14,3.510000e+00,7.872831
15,3.757000e+00,7.874271
16,4.010000e+00,7.874125
17,4.266000e+00,7.881778
18,4.509000e+00,7.891506
19,4.760000e+00,7.897889
20,5.010000e+00,7.898559
21,5.262000e+00,7.908323
22,5.511000e+00,7.935407
23,5.760000e+00,7.950596
24,6.010000e+00,7.969150
25,6.262000e+00,7.991045
26,6.511000e+00,8.034684
27,6.757000e+00,8.073017
28,7.011000e+00,8.114392
29,7.259000e+00,8.174579
30,7.511000e+00,8.209149
31,7.758000e+00,8.246184
32,8.011000e+00,8.287997
33,8.261000e+00,8.364232
34,8.510000e+00,8.420445
35,8.760000e+00,8.474373
36,9.010000e+00,8.526427
37,9.260000e+00,8.589807
38,9.511000e+00,8.638649
39,9.760000e+00,8.691623
40,1.000700e+01,8.744350
41,1.025800e+01,8.813889
42,1.051000e+01,8.857559
43,1.076100e+01,8.899676
44,1.100700e+01,8.939881
45,1.126100e+01,9.002255
46,1.150600e+01,9.039364
47,1.176000e+01,9.077120
48,1.201200e+01,9.119236
49,1.226000e+01,9.178099
50,1.252800e+01,9.212383
51,1.276000e+01,9.247547
52,1.301300e+01,9.282128
53,1.326000e+01,9.338498
54,1.351100e+01,9.374435
55,1.376000e+01,9.406869
56,1.401400e+01,9.455188
57,1.426000e+01,9.487884
58,1.451000e+01,9.519858
59,1.476000e+01,9.554291
60,1.501000e+01,9.605668
61,1.525800e+01,9.633106
62,1.551000e+01,9.654742
63,1.575600e+01,9.671843
64,1.601000e+01,9.701307
65,1.625700e+01,9.725248
66,1.651000e+01,9.748633
67,1.677300e+01,9.773433
68,1.700800e+01,9.809288
69,1.726200e+01,9.830392
70,1.751100e+01,9.848270
71,1.776000e+01,9.863535
72,1.801100e+01,9.889257
73,1.826000e+01,9.904917
74,1.851000e+01,9.918950
75,1.876500e+01,9.931957
76,1.901000e+01,9.949273
77,1.925700e+01,9.959427
78,1.950900e+01,9.971109
79,1.976200e+01,9.985952
80,2.000700e+01,10.010356
81,2.026300e+01,10.028362
82,2.051000e+01,10.047460
83,2.076800e+01,10.078014
84,2.101300e+01,10.093981
85,2.125900e+01,10.105432
86,2.151200e+01,10.116717
87,2.176100e+01,10.139809
88,2.201200e+01,10.153108
89,2.225800e+01,10.162056
90,2.251200e+01,10.169810
91,2.276300e+01,10.184355
92,2.301100e+01,10.193919
93,2.326300e+01,10.203109
94,2.351200e+01,10.211631
95,2.376500e+01,10.219465
96,2.401200e+01,10.226376
97,2.426400e+01,10.229012
98,2.451200e+01,10.234438
99,2.476000e+01,10.243538
100,2.501100e+01,10.251831
101,2.525800e+01,10.255647
102,2.551600e+01,10.256786
103,2.577800e+01,10.261826
104,2.601400e+01,10.267255
105,2.626200e+01,10.270565
106,2.651400e+01,10.271959
107,2.676200e+01,10.273513
108,2.701300e+01,10.273549
109,2.725800e+01,10.274765
110,2.751100e+01,10.280007
111,2.776200e+01,10.289754
112,2.801400e+01,10.298928
113,2.826100e+01,10.307976
114,2.851800e+01,10.314379
115,2.876200e+01,10.317330
116,2.901100e+01,10.322544
117,2.925800e+01,10.326663
118,2.950700e+01,10.331944
119,2.976200e+01,10.333693
120,3.002300e+01,10.335330
121,3.025900e+01,10.334392
122,3.050900e+01,10.327042
123,3.076000e+01,10.327751
124,3.100900e+01,10.331676
125,3.125600e+01,10.330029
126,3.151000e+01,10.324364
127,3.175600e+01,10.324058
128,3.200900e+01,10.323929
129,3.226000e+01,10.321908
130,3.250700e+01,10.319618
131,3.275800e+01,10.313895
132,3.300900e+01,10.307221
133,3.326400e+01,10.305292
134,3.351000e+01,10.310356
135,3.375700e+01,10.310848
136,3.400900e+01,10.311481
137,3.426300e+01,10.310012
138,3.451000e+01,10.301259
139,3.476000e+01,10.292752
140,3.500900e+01,10.290009
141,3.526200e+01,10.289779
142,3.550900e+01,10.290007
143,3.575900e+01,10.293101
144,3.601000e+01,10.293159
145,3.626100e+01,10.286334
146,3.651000e+01,10.280426
147,3.675900e+01,10.275426
148,3.701000e+01,10.272963
149,3.725900e+01,10.261601
150,3.750700e+01,10.253148
151,3.776000e+01,10.244735
152,3.800600e+01,10.240916
153,3.825900e+01,10.241836
154,3.850600e+01,10.242689
155,3.876000e+01,10.239216
156,3.900900e+01,10.230709
157,3.926100e+01,10.217975
158,3.951000e+01,10.215252
159,3.976000e+01,10.210421
160,4.000900e+01,10.206594
161,4.025600e+01,10.205170
162,4.051000e+01,10.203248
163,4.076000e+01,10.197453
164,4.101300e+01,10.189328
165,4.126000e+01,10.178328
166,4.151000e+01,10.173124
167,4.175800e+01,10.163805
168,4.201300e+01,10.154131
169,4.225700e+01,10.147738
170,4.251000e+01,10.144903
171,4.275700e+01,10.140972
172,4.301300e+01,10.139641
173,4.327200e+01,10.138771
174,4.351000e+01,10.133449
175,4.376000e+01,10.123539
176,4.400900e+01,10.116891
177,4.425900e+01,10.115237
178,4.450900e+01,10.116541
179,4.475700e+01,10.119324
180,4.500900e+01,10.123091
181,4.526200e+01,10.118958
182,4.551400e+01,10.115082
183,4.576100e+01,10.111807
184,4.600900e+01,10.112020
185,4.625900e+01,10.109324
186,4.650600e+01,10.103615
187,4.676600e+01,10.099051
188,4.700700e+01,10.099970
189,4.725600e+01,10.102977
190,4.751300e+01,10.103670
191,4.776200e+01,10.100929
192,4.801000e+01,10.088252
193,4.825700e+01,10.078582
194,4.851200e+01,10.067618
195,4.876200e+01,10.058972
196,4.901200e+01,10.046078
197,4.925800e+01,10.038846
198,4.951100e+01,10.035585
199,4.976300e+01,10.036014
200,5.001100e+01,10.034785
201,5.025900e+01,10.035008
202,5.051100e+01,10.036872
203,5.076600e+01,10.033394
204,5.100900e+01,10.028890
205,5.125600e+01,10.026340
206,5.151000e+01,10.023730
207,5.175700e+01,10.021986
208,5.201000e+01,10.023145
209,5.226100e+01,10.020773
210,5.251000e+01,10.017393
211,5.276000e+01,10.012717
212,5.301300e+01,10.006879
213,5.326100e+01,10.000146
214,5.351100e+01,9.997848
215,5.376000e+01,9.999468
216,5.401300e+01,10.000119
217,5.426100e+01,10.003270
218,5.451600e+01,10.006649
219,5.476300e+01,10.009849
220,5.500900e+01,10.009168
221,5.526200e+01,10.004994
222,5.551100e+01,10.000072
223,5.576000e+01,9.995151
224,5.600600e+01,9.995001
225,5.626100e+01,9.996408
226,5.651800e+01,10.000547
227,5.676200e+01,9.999096
228,5.701200e+01,9.990394
229,5.726100e+01,9.983004
230,5.751500e+01,9.980951
231,5.776700e+01,9.981851
232,5.801200e+01,9.979077
233,5.826100e+01,9.977577
234,5.851200e+01,9.983220
235,5.877000e+01,9.981999
236,5.901200e+01,9.977656
237,5.925900e+01,9.977527
238,5.951200e+01,9.971676
239,5.976800e+01,9.970639
240,6.001100e+01,9.968946
241,6.025700e+01,9.970206
242,6.051100e+01,9.977872
243,6.076400e+01,9.984189
244,6.101200e+01,9.990548
245,6.126600e+01,9.995269
246,6.151200e+01,9.994175
247,6.176100e+01,9.991722
248,6.201700e+01,9.987969
249,6.226300e+01,9.984863
250,6.251700e+01,9.980688
251,6.275800e+01,9.977980
252,6.300900e+01,9.979045
253,6.326200e+01,9.977901
254,6.352000e+01,9.975164
255,6.376100e+01,9.974801
256,6.401900e+01,9.974591
257,6.426600e+01,9.972883
258,6.451300e+01,9.971954
259,6.476200e+01,9.968758
260,6.500800e+01,9.962165
261,6.526900e+01,9.954078
262,6.552800e+01,9.953929
263,6.576200e+01,9.955026
264,6.601600e+01,9.954617
265,6.626800e+01,9.953509
266,6.651200e+01,9.949648
267,6.676700e+01,9.947238
268,6.701200e+01,9.949222
269,6.725800e+01,9.954364
270,6.751000e+01,9.957846
271,6.776800e+01,9.963168
272,6.801200e+01,9.968518
273,6.826600e+01,9.969522
274,6.851100e+01,9.967119
275,6.875700e+01,9.963881
276,6.901500e+01,9.959162
277,6.925600e+01,9.956527
278,6.950900e+01,9.959929
279,6.977200e+01,9.961148
280,7.001200e+01,9.959542
281,7.026000e+01,9.954070
282,7.050900e+01,9.950877
283,7.076000e+01,9.951872
284,7.101200e+01,9.953595
285,7.126000e+01,9.957747
286,7.150900e+01,9.963611
287,7.176000e+01,9.967939
288,7.201200e+01,9.967808
289,7.225900e+01,9.968583
290,7.251000e+01,9.966314
291,7.276000e+01,9.958649
292,7.300800e+01,9.951893
293,7.325800e+01,9.951738
294,7.350700e+01,9.952240
295,7.376000e+01,9.951632
296,7.401300e+01,9.955130
297,7.425900e+01,9.964686
298,7.451000e+01,9.971496
299,7.476000e+01,9.973229
300,7.500900e+01,9.979258
301,7.526000e+01,9.983846
302,7.551000e+01,9.988582
303,7.576000e+01,9.993196
304,7.601000e+01,9.996994
305,7.625900e+01,10.001113
306,7.650900e+01,10.003679
307,7.676300e+01,10.001485
308,7.700500e+01,9.997341
309,7.725500e+01,9.996072
310,7.751000e+01,9.993959
311,7.776100e+01,9.994786
312,7.800600e+01,9.997584
313,7.825600e+01,9.998624
314,7.850900e+01,9.999408
315,7.876500e+01,9.997325
316,7.901000e+01,10.000516
317,7.926000e+01,10.003262
318,7.951000e+01,10.003092
319,7.976000e+01,9.999359
320,8.000800e+01,9.995866
321,8.026100e+01,9.997766
322,8.050900e+01,9.998056
323,8.076100e+01,9.991959
324,8.100700e+01,9.988070
325,8.126200e+01,9.987183
326,8.151000e+01,9.989075
327,8.176200e+01,9.992180
328,8.201200e+01,9.993327
329,8.225800e+01,9.993460
330,8.251100e+01,9.991330
331,8.276200e+01,9.989971
332,8.301800e+01,9.989552
333,8.325900e+01,9.987651
334,8.351400e+01,9.991308
335,8.376000e+01,9.996939
336,8.401100e+01,9.998904
337,8.426600e+01,9.997499
338,8.451100e+01,9.996923
339,8.475900e+01,9.998289
340,8.500900e+01,9.998807
341,8.526000e+01,10.002881
342,8.551500e+01,10.007048
343,8.575700e+01,10.005187
344,8.601200e+01,10.004809
345,8.626500e+01,10.005383
346,8.651300e+01,10.003444
347,8.675800e+01,10.003401
348,8.701100e+01,10.003069
349,8.725800e+01,10.001999
350,8.750900e+01,9.999369
351,8.776100e+01,9.995516
352,8.801000e+01,9.992179
353,8.826000e+01,9.996256
354,8.851500e+01,10.002699
355,8.876200e+01,10.006219
356,8.901200e+01,10.008224
357,8.926200e+01,10.009540
358,8.950800e+01,10.006693
359,8.976100e+01,10.006439
360,9.001500e+01,10.008338
361,9.026500e+01,10.006669
362,9.051500e+01,10.000204
363,9.076000e+01,9.997158
364,9.100700e+01,9.998540
365,9.126100e+01,9.999294
366,9.150800e+01,9.999885
367,9.176200e+01,10.002142
368,9.202100e+01,10.000281
369,9.226200e+01,9.994570
370,9.251100e+01,9.992263
371,9.275800e+01,9.997717
372,9.300800e+01,9.995708
373,9.326900e+01,9.994094
374,9.350800e+01,10.001345
375,9.376500e+01,9.998711
376,9.400800e+01,9.995996
377,9.426000e+01,9.994931
378,9.451000e+01,9.997438
379,9.475700e+01,9.996626
380,9.501200e+01,9.995944
381,9.526600e+01,9.991173
382,9.550700e+01,9.988103
383,9.575600e+01,9.988133
384,9.600700e+01,9.991740
385,9.627400e+01,9.998078
386,9.650900e+01,9.999870
387,9.675900e+01,9.998302
388,9.701100e+01,9.993466
389,9.725900e+01,9.989201
390,9.750700e+01,9.992010
391,9.776200e+01,9.992433
392,9.801700e+01,9.992625
393,9.826100e+01,9.993279
394,9.851700e+01,9.997806
395,9.876100e+01,10.002032
396,9.901100e+01,10.005039
397,9.926200e+01,10.002616
398,9.950700e+01,10.001523
399,9.976000e+01,10.001506
400,1.000110e+02,9.999377
401,1.002570e+02,10.001554
402,1.005130e+02,10.005075
403,1.007650e+02,10.006887
404,1.010110e+02,10.007175
405,1.012570e+02,10.005010
406,1.015080e+02,10.003653
407,1.017590e+02,10.002602
408,1.020110e+02,10.001756
409,1.022600e+02,10.001352
410,1.025100e+02,10.005672
411,1.027570e+02,10.007125
412,1.030070e+02,10.006423
413,1.032590e+02,10.007026
414,1.035080e+02,10.005481
415,1.037590e+02,10.001509
416,1.040070e+02,9.998288
417,1.042570e+02,10.000068
418,1.045090e+02,10.002745
