Point,Time (s),Temperature (K)
0,1.500000e-02,44.714581
1,2.610000e-01,44.714539
2,5.110000e-01,44.714844
3,7.570000e-01,44.712952
4,1.013000e+00,44.710968
5,1.260000e+00,44.709476
6,1.510000e+00,44.709332
7,1.759000e+00,44.709793
8,2.009000e+00,44.710548
9,2.256000e+00,44.712040
10,2.510000e+00,44.713612
11,2.762000e+00,44.718548
12,3.013000e+00,44.731918
13,3.261000e+00,44.748604
14,3.512000e+00,44.769508
15,3.761000e+00,44.795937
16,4.012000e+00,44.845287
17,4.267000e+00,44.884056
18,4.513000e+00,44.926411
19,4.758000e+00,44.973980
20,5.012000e+00,45.054192
21,5.264000e+00,45.112270
22,5.512000e+00,45.175892
23,5.762000e+00,45.244709
24,6.012000e+00,45.355732
25,6.263000e+00,45.434128
26,6.513000e+00,45.518299
27,6.763000e+00,45.606243
28,7.012000e+00,45.744076
29,7.262000e+00,45.841244
30,7.512000e+00,45.941059
31,7.767000e+00,46.096268
32,8.014000e+00,46.203434
33,8.263000e+00,46.312477
34,8.512000e+00,46.424377
35,8.759000e+00,46.596268
36,9.009000e+00,46.712719
37,9.262000e+00,46.830288
38,9.509000e+00,46.950047
39,9.763000e+00,47.132813
40,1.002800e+01,47.256737
41,1.026300e+01,47.380913
42,1.051300e+01,47.507084
43,1.077000e+01,47.697250
44,1.101300e+01,47.826664
45,1.126200e+01,47.955933
46,1.151800e+01,48.086075
47,1.176200e+01,48.280811
48,1.201200e+01,48.412376
49,1.226100e+01,48.543606
50,1.251400e+01,48.673866
51,1.276100e+01,48.860199
52,1.301200e+01,48.979733
53,1.325900e+01,49.092888
54,1.351300e+01,49.199093
55,1.375800e+01,49.344009
56,1.402000e+01,49.432224
57,1.427400e+01,49.513847
58,1.451900e+01,49.588181
59,1.476300e+01,49.689510
60,1.501200e+01,49.750111
61,1.526200e+01,49.803558
62,1.551500e+01,49.875927
63,1.576000e+01,49.917538
64,1.601200e+01,49.953499
65,1.626200e+01,49.985397
66,1.651100e+01,50.024498
67,1.676200e+01,50.044312
68,1.701100e+01,50.061096
69,1.726200e+01,50.074337
70,1.750800e+01,50.088169
71,1.776100e+01,50.092518
72,1.800700e+01,50.094013
73,1.826000e+01,50.093533
74,1.851200e+01,50.088120
75,1.876100e+01,50.081169
76,1.901100e+01,50.071938
77,1.926100e+01,50.061790
78,1.951000e+01,50.043053
79,1.975700e+01,50.028591
80,2.000800e+01,50.014217
81,2.026300e+01,49.997131
82,2.051100e+01,49.969791
83,2.076100e+01,49.949642
84,2.101000e+01,49.928047
85,2.126200e+01,49.905968
86,2.151000e+01,49.870777
87,2.175600e+01,49.846237
88,2.200800e+01,49.822369
89,2.226100e+01,49.785992
90,2.250600e+01,49.761524
91,2.275700e+01,49.738453
92,2.300800e+01,49.716557
93,2.327800e+01,49.685699
94,2.351100e+01,49.670399
95,2.376000e+01,49.656578
96,2.401100e+01,49.644878
97,2.426100e+01,49.630833
98,2.451000e+01,49.625271
99,2.476000e+01,49.621723
100,2.501000e+01,49.619923
101,2.526000e+01,49.620449
102,2.551100e+01,49.624115
103,2.575900e+01,49.628963
104,2.601000e+01,49.636383
105,2.626200e+01,49.650776
106,2.650800e+01,49.660225
107,2.676100e+01,49.671513
108,2.700700e+01,49.683144
109,2.726000e+01,49.701786
110,2.752200e+01,49.715710
111,2.776100e+01,49.728569
112,2.801200e+01,49.739231
113,2.826000e+01,49.755875
114,2.851100e+01,49.766323
115,2.876100e+01,49.775982
116,2.901100e+01,49.785000
117,2.926000e+01,49.794403
118,2.951000e+01,49.800148
119,2.975900e+01,49.802773
120,3.000900e+01,49.807236
121,3.025700e+01,49.807976
122,3.051000e+01,49.806145
123,3.075800e+01,49.802906
124,3.101200e+01,49.796040
125,3.125800e+01,49.790356
126,3.151100e+01,49.784454
127,3.176400e+01,49.776833
128,3.200700e+01,49.766129
129,3.226100e+01,49.758583
130,3.250700e+01,49.750736
131,3.276000e+01,49.741219
132,3.301000e+01,49.729126
133,3.326100e+01,49.721931
134,3.351100e+01,49.714279
135,3.376000e+01,49.707462
136,3.401100e+01,49.697762
137,3.426000e+01,49.692497
138,3.450900e+01,49.687748
139,3.476300e+01,49.684460
140,3.500900e+01,49.680878
141,3.526000e+01,49.679310
142,3.550600e+01,49.678421
143,3.576000e+01,49.679424
144,3.600800e+01,49.680252
145,3.626200e+01,49.682293
146,3.652800e+01,49.684422
147,3.676500e+01,49.689945
148,3.701000e+01,49.694626
149,3.726100e+01,49.699715
150,3.750800e+01,49.705112
151,3.776000e+01,49.713097
152,3.801000e+01,49.717022
153,3.826000e+01,49.722004
154,3.851100e+01,49.725433
155,3.875900e+01,49.732250
156,3.901100e+01,49.736153
157,3.925700e+01,49.738720
158,3.950800e+01,49.742462
159,3.975700e+01,49.746109
160,4.000600e+01,49.747402
161,4.025600e+01,49.748234
162,4.051000e+01,49.748734
163,4.077400e+01,49.749401
164,4.101100e+01,49.750111
165,4.126200e+01,49.748707
166,4.151300e+01,49.747177
167,4.176000e+01,49.745762
168,4.200700e+01,49.743740
169,4.226000e+01,49.742165
170,4.251200e+01,49.738461
171,4.276100e+01,49.733212
172,4.301000e+01,49.730198
173,4.326000e+01,49.727612
174,4.351300e+01,49.722610
175,4.376000e+01,49.719677
176,4.401000e+01,49.717617
177,4.426000e+01,49.715076
178,4.450800e+01,49.712200
179,4.476100e+01,49.711514
180,4.501200e+01,49.709076
181,4.526000e+01,49.707630
182,4.550600e+01,49.704185
183,4.575700e+01,49.702465
184,4.601200e+01,49.701382
185,4.626100e+01,49.702370
186,4.651000e+01,49.703331
187,4.676000e+01,49.704319
188,4.700700e+01,49.705128
189,4.726000e+01,49.706089
190,4.750700e+01,49.708061
191,4.775900e+01,49.709190
192,4.801000e+01,49.710155
193,4.825700e+01,49.710926
194,4.851000e+01,49.714848
195,4.875700e+01,49.715424
196,4.900600e+01,49.716850
197,4.926100e+01,49.720474
198,4.950600e+01,49.723835
199,4.975600e+01,49.725605
200,5.000600e+01,49.728149
201,5.026000e+01,49.729424
202,5.050600e+01,49.731476
203,5.075600e+01,49.732044
204,5.100600e+01,49.733105
205,5.125900e+01,49.735279
206,5.150800e+01,49.734852
207,5.176700e+01,49.734852
208,5.200800e+01,49.732666
209,5.226200e+01,49.731636
210,5.250700e+01,49.730659
211,5.276100e+01,49.728844
212,5.300800e+01,49.727951
213,5.326200e+01,49.725513
214,5.350800e+01,49.724541
215,5.376200e+01,49.722683
216,5.402400e+01,49.721027
217,5.425700e+01,49.719162
218,5.451200e+01,49.717506
219,5.476100e+01,49.715019
220,5.501700e+01,49.713982
221,5.526200e+01,49.711601
222,5.551100e+01,49.710865
223,5.576200e+01,49.709572
224,5.601200e+01,49.709114
225,5.626200e+01,49.708714
226,5.651200e+01,49.708496
227,5.676100e+01,49.708248
228,5.701000e+01,49.709248
229,5.726100e+01,49.710350
230,5.751200e+01,49.710915
231,5.775800e+01,49.710876
232,5.801600e+01,49.711559
233,5.826400e+01,49.712883
234,5.851100e+01,49.714081
235,5.876200e+01,49.715481
236,5.900900e+01,49.716816
237,5.926000e+01,49.717419
238,5.951200e+01,49.718578
239,5.976600e+01,49.719410
240,6.000900e+01,49.720047
241,6.026200e+01,49.720161
242,6.051100e+01,49.720749
243,6.076200e+01,49.721100
244,6.102000e+01,49.722263
245,6.126600e+01,49.723103
246,6.151200e+01,49.722523
