Point,Time (s),Temperature (K),Amplitude (V),Phase (Degrees)
0,3.800000e-02,40.029320,4.438800e-01,-9.144000
1,1.037000e+00,40.003643,4.445510e-01,-9.144000
2,2.038000e+00,39.977745,4.452230e-01,-9.144000
3,3.035000e+00,39.953266,4.458940e-01,-9.150000
4,4.055000e+00,39.935650,4.465660e-01,-9.150000
5,5.043000e+00,39.936832,4.472370e-01,-9.156000
6,6.041000e+00,39.970413,4.478780e-01,-9.156000
7,7.039000e+00,40.029533,4.485190e-01,-9.156000
8,8.034000e+00,40.113358,4.491600e-01,-9.156000
9,9.034000e+00,40.216671,4.498000e-01,-9.162000
10,1.003800e+01,40.336586,4.504110e-01,-9.162000
11,1.103600e+01,40.460087,4.510820e-01,-9.168000
12,1.203400e+01,40.588779,4.516930e-01,-9.168000
13,1.303900e+01,40.708492,4.522720e-01,-9.168000
14,1.403900e+01,40.823483,4.528830e-01,-9.174000
15,1.503800e+01,40.926994,4.534930e-01,-9.174000
16,1.603800e+01,41.018494,4.540420e-01,-9.174000
17,1.703700e+01,41.097965,4.546530e-01,-9.174000
18,1.803900e+01,41.171562,4.552630e-01,-9.174000
19,1.903600e+01,41.237999,4.558120e-01,-9.180000
20,2.003900e+01,41.302441,4.563620e-01,-9.180000
21,2.103300e+01,41.370541,4.569720e-01,-9.180000
22,2.203700e+01,41.441078,4.575210e-01,-9.180000
23,2.303700e+01,41.516048,4.580710e-01,-9.180000
24,2.404600e+01,41.589916,4.585590e-01,-9.186000
25,2.503900e+01,41.668552,4.591080e-01,-9.180000
26,2.604000e+01,41.750874,4.596580e-01,-9.186000
27,2.704000e+01,41.834499,4.602070e-01,-9.186000
28,2.804000e+01,41.921486,4.606950e-01,-9.186000
29,2.903800e+01,42.006233,4.611840e-01,-9.186000
30,3.003500e+01,42.089092,4.617330e-01,-9.186000
31,3.103800e+01,42.169727,4.621600e-01,-9.180000
32,3.204600e+01,42.247387,4.627090e-01,-9.186000
33,3.304400e+01,42.323837,4.631370e-01,-9.186000
34,3.404500e+01,42.407913,4.636250e-01,-9.186000
35,3.504200e+01,42.483757,4.641130e-01,-9.180000
36,3.603900e+01,42.554581,4.645400e-01,-9.180000
37,3.703900e+01,42.623325,4.650290e-01,-9.180000
38,3.803800e+01,42.692993,4.653950e-01,-9.180000
39,3.904500e+01,42.762188,4.658830e-01,-9.180000
40,4.003600e+01,42.834026,4.663110e-01,-9.180000
41,4.103700e+01,42.908440,4.666770e-01,-9.180000
42,4.203500e+01,42.981251,4.671040e-01,-9.180000
43,4.303600e+01,43.056904,4.674700e-01,-9.174000
44,4.404500e+01,43.133194,4.678970e-01,-9.180000
45,4.504200e+01,43.210632,4.682640e-01,-9.174000
46,4.604400e+01,43.288891,4.686300e-01,-9.174000
47,4.704400e+01,43.367504,4.689960e-01,-9.174000
48,4.804700e+01,43.443901,4.693620e-01,-9.174000
49,4.904700e+01,43.520596,4.697280e-01,-9.168000
50,5.004200e+01,43.599197,4.700340e-01,-9.168000
51,5.103900e+01,43.673584,4.704000e-01,-9.168000
52,5.204800e+01,43.745834,4.707050e-01,-9.162000
53,5.304900e+01,43.820225,4.710100e-01,-9.168000
54,5.403900e+01,43.893810,4.713150e-01,-9.162000
55,5.504000e+01,43.968464,4.716210e-01,-9.162000
56,5.603600e+01,44.041115,4.719260e-01,-9.156000
57,5.706000e+01,44.115528,4.721700e-01,-9.156000
58,5.803500e+01,44.192276,4.724750e-01,-9.156000
59,5.904000e+01,44.267101,4.727800e-01,-9.150000
60,6.004000e+01,44.342148,4.730240e-01,-9.150000
61,6.105200e+01,44.419258,4.732690e-01,-9.144000
62,6.204400e+01,44.493179,4.735740e-01,-9.144000
63,6.304500e+01,44.575684,4.737570e-01,-9.144000
64,6.404400e+01,44.650475,4.738790e-01,-9.138000
65,6.503800e+01,44.723965,4.741230e-01,-9.138000
66,6.606100e+01,44.801231,4.742450e-01,-9.132000
67,6.704700e+01,44.876686,4.744280e-01,-9.132000
68,6.803700e+01,44.953411,4.745500e-01,-9.126000
69,6.903900e+01,45.029079,4.747330e-01,-9.126000
70,7.003500e+01,45.106022,4.749160e-01,-9.120000
71,7.104000e+01,45.178043,4.751000e-01,-9.120000
72,7.203700e+01,45.252007,4.752220e-01,-9.114000
73,7.304100e+01,45.326012,4.753440e-01,-9.114000
74,7.403500e+01,45.400723,4.755270e-01,-9.108000
75,7.504000e+01,45.477211,4.756490e-01,-9.102000
76,7.604000e+01,45.555012,4.757710e-01,-9.102000
77,7.704000e+01,45.628357,4.758320e-01,-9.102000
78,7.803900e+01,45.701965,4.759540e-01,-9.096000
79,7.905300e+01,45.777020,4.760150e-01,-9.096000
80,8.003900e+01,45.851486,4.760760e-01,-9.090000
81,8.104100e+01,45.925598,4.760760e-01,-9.090000
82,8.204000e+01,46.000122,4.761370e-01,-9.084000
83,8.303400e+01,46.074715,4.761370e-01,-9.084000
84,8.404000e+01,46.151039,4.760760e-01,-9.084000
85,8.504600e+01,46.227612,4.760760e-01,-9.078000
86,8.604000e+01,46.300610,4.760760e-01,-9.078000
87,8.703900e+01,46.377987,4.761370e-01,-9.072000
88,8.804100e+01,46.455940,4.761370e-01,-9.072000
89,8.903700e+01,46.532230,4.761370e-01,-9.072000
90,9.004400e+01,46.608437,4.761370e-01,-9.066000
91,9.104100e+01,46.679970,4.760760e-01,-9.060000
92,9.204500e+01,46.765594,4.760150e-01,-9.060000
93,9.304500e+01,46.838516,4.760150e-01,-9.054000
94,9.404800e+01,46.911682,4.759540e-01,-9.054000
95,9.504200e+01,46.983521,4.758930e-01,-9.054000
96,9.604000e+01,47.059235,4.758320e-01,-9.048000
97,9.703500e+01,47.135288,4.757710e-01,-9.042000
98,9.804100e+01,47.208706,4.756490e-01,-9.042000
99,9.904000e+01,47.281834,4.755880e-01,-9.042000
100,1.000350e+02,47.359116,4.755270e-01,-9.036000
101,1.010540e+02,47.436859,4.755270e-01,-9.030000
102,1.020430e+02,47.514904,4.755270e-01,-9.030000
103,1.030340e+02,47.586548,4.754050e-01,-9.024000
104,1.040380e+02,47.660969,4.753440e-01,-9.018000
105,1.050370e+02,47.737911,4.752830e-01,-9.018000
106,1.060410e+02,47.814781,4.751000e-01,-9.012000
107,1.070370e+02,47.890270,4.749770e-01,-9.012000
108,1.080420e+02,47.963009,4.748550e-01,-9.006000
109,1.090400e+02,48.037277,4.747330e-01,-9.006000
110,1.100510e+02,48.112587,4.746110e-01,-9.000000
111,1.110420e+02,48.187344,4.744890e-01,-8.994000
112,1.120360e+02,48.261513,4.743670e-01,-8.988000
113,1.130410e+02,48.337902,4.743060e-01,-8.988000
114,1.140410e+02,48.411674,4.743060e-01,-8.982000
115,1.150410e+02,48.488224,4.742450e-01,-8.976000
116,1.160420e+02,48.563931,4.742450e-01,-8.970000
117,1.170400e+02,48.638340,4.743060e-01,-8.964000
118,1.180340e+02,48.711426,4.743060e-01,-8.964000
119,1.190440e+02,48.786232,4.743060e-01,-8.958000
120,1.200430e+02,48.859898,4.743060e-01,-8.952000
121,1.210400e+02,48.938225,4.743670e-01,-8.952000
122,1.220450e+02,49.020180,4.743670e-01,-8.946000
123,1.230440e+02,49.094898,4.743670e-01,-8.934000
124,1.240380e+02,49.169342,4.744280e-01,-8.934000
125,1.250450e+02,49.242683,4.744280e-01,-8.928000
126,1.260390e+02,49.316597,4.744890e-01,-8.922000
127,1.270360e+02,49.392220,4.745500e-01,-8.916000
128,1.280400e+02,49.469063,4.746110e-01,-8.910000
129,1.290390e+02,49.543736,4.747330e-01,-8.904000
130,1.300400e+02,49.620308,4.748550e-01,-8.898000
131,1.310400e+02,49.694401,4.749770e-01,-8.898000
132,1.320390e+02,49.769150,4.751610e-01,-8.886000
133,1.330390e+02,49.842842,4.752830e-01,-8.886000
134,1.340400e+02,49.918324,4.754050e-01,-8.880000
135,1.350400e+02,49.994789,4.754660e-01,-8.874000
136,1.360350e+02,50.069412,4.754660e-01,-8.868000
137,1.370380e+02,50.146835,4.755880e-01,-8.862000
138,1.380400e+02,50.222752,4.757100e-01,-8.856000
139,1.390390e+02,50.297314,4.757710e-01,-8.850000
140,1.400380e+02,50.372631,4.758930e-01,-8.844000
141,1.410400e+02,50.445736,4.760150e-01,-8.838000
142,1.420400e+02,50.519695,4.760760e-01,-8.832000
143,1.430400e+02,50.593796,4.761370e-01,-8.832000
144,1.440390e+02,50.669716,4.761980e-01,-8.826000
145,1.450450e+02,50.744896,4.762590e-01,-8.820000
146,1.460360e+02,50.816925,4.762590e-01,-8.808000
147,1.470390e+02,50.891769,4.762590e-01,-8.808000
148,1.480430e+02,50.966190,4.761980e-01,-8.802000
149,1.490470e+02,51.048737,4.761980e-01,-8.796000
150,1.500430e+02,51.125832,4.761370e-01,-8.790000
151,1.510390e+02,51.199833,4.761370e-01,-8.784000
152,1.520390e+02,51.275669,4.760760e-01,-8.784000
153,1.530370e+02,51.351582,4.760150e-01,-8.778000
154,1.540550e+02,51.426609,4.760150e-01,-8.772000
155,1.550390e+02,51.502663,4.760760e-01,-8.772000
156,1.560400e+02,51.577438,4.761980e-01,-8.766000
157,1.570390e+02,51.650467,4.764420e-01,-8.760000
158,1.580400e+02,51.726585,4.766250e-01,-8.760000
159,1.590380e+02,51.802589,4.766860e-01,-8.754000
160,1.600400e+02,51.877800,4.763810e-01,-8.748000
161,1.610400e+02,51.951660,4.748550e-01,-8.748000
162,1.620360e+02,52.027855,4.714980e-01,-8.754000
163,1.630480e+02,52.102058,4.671040e-01,-8.754000
164,1.640400e+02,52.177616,4.623430e-01,-8.754000
165,1.650400e+02,52.253265,4.573990e-01,-8.754000
166,1.660390e+02,52.328178,4.525780e-01,-8.760000
167,1.670370e+02,52.402222,4.478170e-01,-8.760000
168,1.680460e+02,52.476997,4.429950e-01,-8.754000
169,1.690400e+02,52.551109,4.382950e-01,-8.754000
170,1.700390e+02,52.626926,4.337180e-01,-8.754000
171,1.710370e+02,52.701714,4.290790e-01,-8.754000
172,1.720400e+02,52.776161,4.245010e-01,-8.754000
173,1.730380e+02,52.853130,4.199850e-01,-8.754000
174,1.740390e+02,52.926903,4.155290e-01,-8.754000
175,1.750530e+02,53.001076,4.111350e-01,-8.754000
176,1.760460e+02,53.075401,4.067400e-01,-8.754000
177,1.770430e+02,53.151531,4.024680e-01,-8.754000
178,1.780460e+02,53.234371,3.981340e-01,-8.754000
179,1.790420e+02,53.311615,3.939840e-01,-8.754000
180,1.800390e+02,53.386211,3.897110e-01,-8.754000
181,1.810370e+02,53.459328,3.856220e-01,-8.754000
182,1.820400e+02,53.531841,3.814720e-01,-8.754000
183,1.830390e+02,53.607090,3.774430e-01,-8.754000
184,1.840460e+02,53.682682,3.734150e-01,-8.754000
185,1.850450e+02,53.759583,3.694480e-01,-8.754000
186,1.860410e+02,53.832970,3.655410e-01,-8.754000
187,1.870380e+02,53.909012,3.616350e-01,-8.754000
188,1.880390e+02,53.983025,3.578510e-01,-8.754000
189,1.890410e+02,54.058289,3.540060e-01,-8.754000
190,1.900410e+02,54.132343,3.502220e-01,-8.754000
191,1.910390e+02,54.208588,3.464980e-01,-8.754000
192,1.920400e+02,54.283695,3.428360e-01,-8.754000
193,1.930360e+02,54.358173,3.392350e-01,-8.754000
194,1.940410e+02,54.434448,3.355730e-01,-8.754000
195,1.950390e+02,54.509850,3.320330e-01,-8.754000
196,1.960530e+02,54.584080,3.285540e-01,-8.754000
197,1.970380e+02,54.657711,3.250140e-01,-8.754000
198,1.980450e+02,54.730850,3.215350e-01,-8.754000
199,1.990400e+02,54.803612,3.181170e-01,-8.760000
200,2.000460e+02,54.878883,3.147600e-01,-8.754000
201,2.010390e+02,54.952503,3.114030e-01,-8.754000
202,2.020410e+02,55.026852,3.081070e-01,-8.754000
203,2.030410e+02,55.100742,3.048730e-01,-8.754000
204,2.040420e+02,55.173862,3.015770e-01,-8.754000
205,2.050450e+02,55.248817,2.984030e-01,-8.760000
206,2.060420e+02,55.323563,2.952290e-01,-8.754000
207,2.070560e+02,55.407486,2.921160e-01,-8.760000
208,2.080410e+02,55.482708,2.890030e-01,-8.760000
209,2.090390e+02,55.556774,2.858910e-01,-8.760000
210,2.100400e+02,55.632324,2.828390e-01,-8.760000
211,2.110400e+02,55.709816,2.798480e-01,-8.754000
212,2.120390e+02,55.784718,2.769180e-01,-8.754000
213,2.130390e+02,55.860210,2.739890e-01,-8.754000
214,2.140410e+02,55.938457,2.709980e-01,-8.760000
215,2.150390e+02,56.015358,2.681900e-01,-8.760000
216,2.160570e+02,56.091423,2.653220e-01,-8.760000
217,2.170380e+02,56.166088,2.625140e-01,-8.760000
218,2.180400e+02,56.243641,2.597060e-01,-8.754000
219,2.190370e+02,56.319973,2.568990e-01,-8.754000
220,2.200410e+02,56.395348,2.542130e-01,-8.760000
221,2.210400e+02,56.468002,2.514670e-01,-8.760000
222,2.220400e+02,56.542038,2.488410e-01,-8.760000
223,2.230410e+02,56.617031,2.462170e-01,-8.754000
224,2.240350e+02,56.692245,2.435310e-01,-8.760000
225,2.250380e+02,56.769367,2.409680e-01,-8.760000
226,2.260390e+02,56.845577,2.384040e-01,-8.760000
227,2.270520e+02,56.917957,2.359020e-01,-8.754000
228,2.280380e+02,56.992687,2.333990e-01,-8.760000
229,2.290390e+02,57.067162,2.308970e-01,-8.760000
230,2.300380e+02,57.141750,2.284560e-01,-8.760000
231,2.310400e+02,57.217747,2.260140e-01,-8.754000
232,2.320410e+02,57.290318,2.235730e-01,-8.760000
233,2.330360e+02,57.364281,2.212530e-01,-8.760000
234,2.340450e+02,57.439507,2.188730e-01,-8.760000
235,2.350430e+02,57.513916,2.165540e-01,-8.754000
236,2.360450e+02,57.598148,2.142340e-01,-8.760000
237,2.370410e+02,57.671211,2.119760e-01,-8.754000
238,2.380390e+02,57.745586,2.097180e-01,-8.760000
239,2.390330e+02,57.820522,2.075200e-01,-8.760000
240,2.400380e+02,57.895763,2.053230e-01,-8.760000
241,2.410380e+02,57.970257,2.031260e-01,-8.760000
242,2.420350e+02,58.048290,2.009900e-01,-8.760000
243,2.430390e+02,58.124157,1.988530e-01,-8.754000
244,2.440390e+02,58.201630,1.967170e-01,-8.760000
245,2.450350e+02,58.277740,1.945810e-01,-8.760000
246,2.460380e+02,58.351868,1.925060e-01,-8.766000
247,2.470400e+02,58.426048,1.904920e-01,-8.766000
248,2.480400e+02,58.500912,1.884780e-01,-8.760000
249,2.490400e+02,58.576084,1.864630e-01,-8.760000
250,2.500380e+02,58.651798,1.845100e-01,-8.760000
251,2.510460e+02,58.727268,1.825570e-01,-8.760000
252,2.520390e+02,58.801231,1.806040e-01,-8.760000
253,2.530390e+02,58.875912,1.787120e-01,-8.766000
254,2.540410e+02,58.950768,1.767590e-01,-8.766000
255,2.550400e+02,59.025391,1.748670e-01,-8.760000
256,2.560390e+02,59.100044,1.730360e-01,-8.766000
257,2.570380e+02,59.174427,1.712050e-01,-8.772000
258,2.580390e+02,59.251415,1.693740e-01,-8.760000
259,2.590380e+02,59.326973,1.676030e-01,-8.766000
260,2.600580e+02,59.400360,1.657720e-01,-8.766000
261,2.610380e+02,59.474739,1.640020e-01,-8.766000
262,2.620550e+02,59.551792,1.622930e-01,-8.766000
263,2.630440e+02,59.625854,1.605840e-01,-8.766000
264,2.640440e+02,59.700245,1.588750e-01,-8.760000
265,2.650450e+02,59.785877,1.571660e-01,-8.772000
266,2.660420e+02,59.859478,1.555190e-01,-8.766000
267,2.670400e+02,59.932850,1.538710e-01,-8.760000
268,2.680370e+02,60.007069,1.522230e-01,-8.766000
269,2.690570e+02,60.083290,1.505750e-01,-8.772000
270,2.700410e+02,60.154942,1.489880e-01,-8.766000
271,2.710390e+02,60.220978,1.474010e-01,-8.766000
272,2.720400e+02,60.273067,1.458140e-01,-8.766000
273,2.730400e+02,60.312496,1.442880e-01,-8.766000
274,2.740390e+02,60.334339,1.427620e-01,-8.772000
