Point,Time (s),Temperature (K),Amplitude (V),Phase (Degrees)
0,5.100000e-02,59.997517,1.022340e-01,-8.778000
1,1.044000e+00,59.998669,1.011360e-01,-8.778000
2,2.044000e+00,60.000607,1.000370e-01,-8.772000
3,3.043000e+00,60.001232,9.899950e-02,-8.772000
4,4.043000e+00,59.997833,9.796190e-02,-8.772000
5,5.040000e+00,59.986034,9.692430e-02,-8.784000
6,6.037000e+00,59.957298,9.588670e-02,-8.778000
7,7.057000e+00,59.914639,9.484910e-02,-8.772000
8,8.044000e+00,59.857788,9.381150e-02,-8.784000
9,9.049000e+00,59.781994,9.289600e-02,-8.778000
10,1.004500e+01,59.701012,9.185840e-02,-8.784000
11,1.104500e+01,59.611824,9.088180e-02,-8.772000
12,1.204500e+01,59.513245,8.990530e-02,-8.784000
13,1.304300e+01,59.408794,8.892870e-02,-8.772000
14,1.404100e+01,59.301113,8.801320e-02,-8.778000
15,1.503600e+01,59.189873,8.709760e-02,-8.784000
16,1.603600e+01,59.075607,8.612110e-02,-8.790000
17,1.704400e+01,58.960392,8.520560e-02,-8.772000
18,1.804300e+01,58.844337,8.435110e-02,-8.772000
19,1.904100e+01,58.732880,8.337450e-02,-8.778000
20,2.004200e+01,58.621090,8.252000e-02,-8.778000
21,2.104300e+01,58.511818,8.166550e-02,-8.778000
22,2.204500e+01,58.406918,8.075000e-02,-8.778000
23,2.303900e+01,58.307209,7.995650e-02,-8.772000
24,2.403600e+01,58.214584,7.910200e-02,-8.778000
25,2.504300e+01,58.124332,7.824750e-02,-8.796000
26,2.604900e+01,58.037445,7.739310e-02,-8.790000
27,2.704500e+01,57.955387,7.659960e-02,-8.784000
28,2.804100e+01,57.879387,7.580610e-02,-8.778000
29,2.904000e+01,57.805161,7.495160e-02,-8.796000
30,3.004300e+01,57.732105,7.415820e-02,-8.784000
31,3.104500e+01,57.663891,7.342580e-02,-8.778000
32,3.204000e+01,57.595081,7.257130e-02,-8.790000
33,3.304000e+01,57.532310,7.183890e-02,-8.778000
34,3.404500e+01,57.467426,7.104540e-02,-8.790000
35,3.504900e+01,57.404556,7.031300e-02,-8.778000
36,3.604400e+01,57.340164,6.958060e-02,-8.790000
37,3.705000e+01,57.279099,6.878710e-02,-8.802000
38,3.804600e+01,57.207603,6.811570e-02,-8.784000
39,3.904400e+01,57.139149,6.738330e-02,-8.790000
40,4.004300e+01,57.070808,6.665090e-02,-8.796000
41,4.103700e+01,57.002449,6.591840e-02,-8.802000
42,4.205000e+01,56.932625,6.524710e-02,-8.784000
43,4.304400e+01,56.865513,6.457570e-02,-8.790000
44,4.404400e+01,56.792412,6.384330e-02,-8.790000
45,4.504300e+01,56.719810,6.317190e-02,-8.796000
46,4.604300e+01,56.644127,6.250050e-02,-8.796000
47,4.704300e+01,56.571091,6.182890e-02,-8.802000
48,4.803700e+01,56.495899,6.121850e-02,-8.802000
49,4.904300e+01,56.418930,6.054710e-02,-8.802000
50,5.003600e+01,56.342693,5.987570e-02,-8.802000
51,5.105300e+01,56.263805,5.926540e-02,-8.802000
52,5.204500e+01,56.185783,5.865500e-02,-8.790000
53,5.304400e+01,56.108803,5.798360e-02,-8.790000
54,5.403900e+01,56.031322,5.737330e-02,-8.814000
55,5.504400e+01,55.956554,5.676290e-02,-8.808000
56,5.604500e+01,55.878113,5.615260e-02,-8.802000
57,5.704500e+01,55.797169,5.554220e-02,-8.796000
58,5.804300e+01,55.720299,5.499290e-02,-8.814000
59,5.903700e+01,55.645645,5.438260e-02,-8.808000
60,6.005700e+01,55.567844,5.377220e-02,-8.796000
61,6.104400e+01,55.492268,5.322290e-02,-8.820000
62,6.204500e+01,55.415730,5.267360e-02,-8.808000
63,6.305100e+01,55.338245,5.212430e-02,-8.784000
64,6.404700e+01,55.262020,5.157490e-02,-8.808000
65,6.504400e+01,55.185112,5.102560e-02,-8.790000
66,6.604500e+01,55.111717,5.047630e-02,-8.808000
67,6.704800e+01,55.028172,4.992700e-02,-8.826000
68,6.804000e+01,54.954288,4.937770e-02,-8.808000
69,6.904300e+01,54.880642,4.888940e-02,-8.820000
70,7.004400e+01,54.807339,4.834010e-02,-8.802000
71,7.104200e+01,54.733658,4.785180e-02,-8.814000
72,7.204200e+01,54.658714,4.736350e-02,-8.826000
73,7.304300e+01,54.585423,4.681420e-02,-8.796000
74,7.404900e+01,54.511448,4.632590e-02,-8.814000
75,7.504300e+01,54.437389,4.583760e-02,-8.820000
76,7.604000e+01,54.363476,4.534940e-02,-8.832000
77,7.703900e+01,54.289745,4.486110e-02,-8.796000
78,7.804200e+01,54.217148,4.437280e-02,-8.802000
79,7.905600e+01,54.141811,4.394560e-02,-8.814000
80,8.004200e+01,54.065704,4.345730e-02,-8.820000
81,8.105600e+01,53.991943,4.296900e-02,-8.826000
82,8.204200e+01,53.915180,4.254170e-02,-8.826000
83,8.304300e+01,53.840260,4.205350e-02,-8.832000
84,8.404200e+01,53.766441,4.162620e-02,-8.838000
85,8.504200e+01,53.694595,4.119900e-02,-8.838000
86,8.604100e+01,53.616016,4.077170e-02,-8.838000
87,8.704100e+01,53.538742,4.028340e-02,-8.838000
88,8.804200e+01,53.463932,3.985620e-02,-8.838000
89,8.904300e+01,53.388718,3.949000e-02,-8.832000
90,9.004200e+01,53.314148,3.906270e-02,-8.832000
91,9.104200e+01,53.242119,3.863550e-02,-8.826000
92,9.204200e+01,53.165245,3.820820e-02,-8.820000
93,9.304600e+01,53.089966,3.778100e-02,-8.814000
94,9.404300e+01,53.013298,3.741480e-02,-8.808000
95,9.505100e+01,52.928364,3.698750e-02,-8.850000
96,9.604200e+01,52.854511,3.662130e-02,-8.844000
97,9.705400e+01,52.779087,3.625510e-02,-8.832000
98,9.804200e+01,52.704140,3.582790e-02,-8.820000
99,9.904200e+01,52.627838,3.546170e-02,-8.862000
100,1.000410e+02,52.552204,3.509550e-02,-8.844000
101,1.010410e+02,52.477676,3.472920e-02,-8.826000
102,1.020420e+02,52.400558,3.436300e-02,-8.814000
103,1.030380e+02,52.323898,3.399680e-02,-8.850000
104,1.040530e+02,52.249836,3.363060e-02,-8.838000
105,1.050430e+02,52.172161,3.326440e-02,-8.808000
106,1.060420e+02,52.095535,3.289820e-02,-8.850000
107,1.070410e+02,52.018124,3.259300e-02,-8.826000
108,1.080420e+02,51.943996,3.222680e-02,-8.868000
109,1.090420e+02,51.864693,3.186060e-02,-8.838000
110,1.100430e+02,51.787083,3.149440e-02,-8.874000
111,1.110420e+02,51.712975,3.118910e-02,-8.850000
112,1.120390e+02,51.637085,3.082290e-02,-8.880000
113,1.130570e+02,51.562584,3.051770e-02,-8.844000
114,1.140390e+02,51.492477,3.021250e-02,-8.880000
115,1.150370e+02,51.417046,2.990730e-02,-8.850000
116,1.160400e+02,51.338848,2.954110e-02,-8.880000
117,1.170490e+02,51.263905,2.923600e-02,-8.838000
118,1.180370e+02,51.190159,2.893080e-02,-8.874000
119,1.190420e+02,51.115356,2.862560e-02,-8.838000
120,1.200370e+02,51.042019,2.832040e-02,-8.862000
121,1.210390e+02,50.968483,2.801530e-02,-8.892000
122,1.220470e+02,50.895008,2.771010e-02,-8.850000
123,1.230450e+02,50.820835,2.740490e-02,-8.868000
124,1.240450e+02,50.739635,2.716080e-02,-8.898000
125,1.250420e+02,50.665981,2.685560e-02,-8.844000
126,1.260410e+02,50.593292,2.655040e-02,-8.874000
127,1.270410e+02,50.520386,2.624520e-02,-8.892000
128,1.280410e+02,50.444416,2.594010e-02,-8.844000
129,1.290430e+02,50.371197,2.569590e-02,-8.862000
130,1.300380e+02,50.297802,2.545180e-02,-8.880000
131,1.310410e+02,50.224842,2.514660e-02,-8.904000
132,1.320410e+02,50.147697,2.490250e-02,-8.844000
133,1.330480e+02,50.072239,2.465830e-02,-8.862000
134,1.340410e+02,49.997154,2.435310e-02,-8.880000
135,1.350410e+02,49.921848,2.410900e-02,-8.892000
136,1.360410e+02,49.845863,2.386490e-02,-8.910000
137,1.370410e+02,49.770573,2.362070e-02,-8.838000
138,1.380410e+02,49.693310,2.331550e-02,-8.856000
139,1.390410e+02,49.617344,2.313240e-02,-8.862000
140,1.400550e+02,49.540203,2.282730e-02,-8.886000
141,1.410430e+02,49.464344,2.258310e-02,-8.892000
142,1.420380e+02,49.388920,2.233900e-02,-8.904000
143,1.430410e+02,49.314617,2.215590e-02,-8.910000
144,1.440420e+02,49.239033,2.191170e-02,-8.916000
145,1.450410e+02,49.165379,2.166760e-02,-8.928000
146,1.460390e+02,49.090969,2.142350e-02,-8.934000
147,1.470400e+02,49.018177,2.117930e-02,-8.856000
148,1.480560e+02,48.941914,2.099620e-02,-8.850000
149,1.490520e+02,48.865417,2.075210e-02,-8.856000
150,1.500480e+02,48.787323,2.050790e-02,-8.850000
151,1.510460e+02,48.713833,2.032480e-02,-8.862000
152,1.520440e+02,48.640865,2.008070e-02,-8.856000
153,1.530450e+02,48.556892,1.989760e-02,-8.862000
154,1.540420e+02,48.482708,1.965340e-02,-8.856000
155,1.550420e+02,48.407166,1.947030e-02,-8.946000
156,1.560390e+02,48.331196,1.928720e-02,-8.940000
157,1.570530e+02,48.257401,1.904310e-02,-8.934000
158,1.580420e+02,48.179817,1.886000e-02,-8.928000
159,1.590430e+02,48.103889,1.867690e-02,-8.922000
160,1.600440e+02,48.028275,1.849380e-02,-8.916000
161,1.610420e+02,47.955952,1.824960e-02,-8.910000
162,1.620420e+02,47.879459,1.806650e-02,-8.904000
163,1.630420e+02,47.804657,1.782240e-02,-8.898000
164,1.640440e+02,47.730316,1.763930e-02,-8.874000
165,1.650460e+02,47.653614,1.745620e-02,-8.976000
166,1.660520e+02,47.578865,1.727310e-02,-8.958000
167,1.670420e+02,47.502728,1.709000e-02,-8.952000
168,1.680570e+02,47.429935,1.690690e-02,-8.928000
169,1.690430e+02,47.355564,1.672380e-02,-8.916000
170,1.700410e+02,47.279045,1.654060e-02,-8.892000
171,1.710570e+02,47.204315,1.641860e-02,-8.982000
172,1.720430e+02,47.128414,1.623550e-02,-8.958000
173,1.730400e+02,47.057049,1.605240e-02,-8.952000
174,1.740380e+02,46.978992,1.586930e-02,-8.928000
175,1.750390e+02,46.904793,1.568620e-02,-8.904000
176,1.760420e+02,46.830036,1.556400e-02,-9.000000
177,1.770560e+02,46.757805,1.538090e-02,-8.952000
178,1.780390e+02,46.681686,1.525880e-02,-8.928000
179,1.790480e+02,46.604496,1.501470e-02,-8.898000
180,1.800460e+02,46.527924,1.489260e-02,-9.000000
181,1.810490e+02,46.441700,1.477060e-02,-8.934000
182,1.820450e+02,46.367630,1.525880e-02,-9.030000
183,1.830400e+02,46.293098,1.812760e-02,-8.976000
184,1.840420e+02,46.220001,2.252210e-02,-8.904000
185,1.850430e+02,46.145523,2.728280e-02,-8.832000
186,1.860550e+02,46.069847,3.210470e-02,-8.802000
187,1.870450e+02,45.997169,3.704860e-02,-8.778000
188,1.880480e+02,45.922455,4.193140e-02,-8.718000
189,1.890510e+02,45.849384,4.675320e-02,-8.712000
190,1.900450e+02,45.770863,5.169700e-02,-8.670000
191,1.910390e+02,45.695030,5.651880e-02,-8.676000
192,1.920400e+02,45.619888,6.121850e-02,-8.628000
193,1.930440e+02,45.543404,6.585740e-02,-8.628000
194,1.940440e+02,45.467907,7.049610e-02,-8.610000
195,1.950440e+02,45.392410,7.495160e-02,-8.604000
196,1.960400e+02,45.318432,7.928510e-02,-8.598000
197,1.970510e+02,45.244518,8.337450e-02,-8.586000
198,1.980450e+02,45.166458,8.770800e-02,-8.586000
199,1.990420e+02,45.089706,9.191940e-02,-8.592000
200,2.000410e+02,45.015903,9.600880e-02,-8.580000
201,2.010520e+02,44.939739,1.001590e-01,-8.568000
202,2.020580e+02,44.867294,1.042490e-01,-8.580000
203,2.030430e+02,44.794994,1.083380e-01,-8.574000
204,2.040360e+02,44.722702,1.124270e-01,-8.574000
205,2.050410e+02,44.647995,1.164560e-01,-8.556000
206,2.060380e+02,44.573235,1.204230e-01,-8.562000
207,2.070420e+02,44.497566,1.243900e-01,-8.550000
208,2.080470e+02,44.423832,1.282360e-01,-8.562000
209,2.090440e+02,44.347591,1.320810e-01,-8.556000
210,2.100520e+02,44.263443,1.359260e-01,-8.556000
211,2.110440e+02,44.188599,1.397100e-01,-8.556000
212,2.120420e+02,44.114029,1.433120e-01,-8.556000
213,2.130460e+02,44.036983,1.469130e-01,-8.556000
214,2.140410e+02,43.962162,1.505140e-01,-8.550000
215,2.150420e+02,43.888641,1.540540e-01,-8.556000
216,2.160370e+02,43.812130,1.575940e-01,-8.550000
217,2.170410e+02,43.739445,1.610120e-01,-8.556000
218,2.180380e+02,43.661957,1.644910e-01,-8.550000
219,2.190690e+02,43.585548,1.678480e-01,-8.550000
220,2.200410e+02,43.511917,1.710820e-01,-8.556000
221,2.210420e+02,43.438931,1.743170e-01,-8.556000
222,2.220410e+02,43.363621,1.774910e-01,-8.562000
223,2.230430e+02,43.287987,1.805430e-01,-8.562000
224,2.240430e+02,43.213028,1.835950e-01,-8.556000
225,2.250380e+02,43.137150,1.865240e-01,-8.568000
226,2.260400e+02,43.063061,1.894540e-01,-8.568000
227,2.270380e+02,42.989872,1.923840e-01,-8.568000
228,2.280400e+02,42.913628,1.952520e-01,-8.568000
229,2.290470e+02,42.841949,1.981820e-01,-8.580000
230,2.300410e+02,42.769470,2.009900e-01,-8.580000
231,2.310410e+02,42.694977,2.038580e-01,-8.586000
232,2.320430e+02,42.621250,2.067270e-01,-8.586000
233,2.330410e+02,42.545288,2.094740e-01,-8.592000
234,2.340420e+02,42.469242,2.122200e-01,-8.598000
235,2.350400e+02,42.392250,2.149060e-01,-8.592000
236,2.360370e+02,42.315723,2.177130e-01,-8.604000
237,2.370460e+02,42.241379,2.203990e-01,-8.610000
238,2.380450e+02,42.163479,2.230840e-01,-8.610000
239,2.390470e+02,42.077946,2.256480e-01,-8.610000
240,2.400430e+02,42.002884,2.282110e-01,-8.616000
241,2.410530e+02,41.929573,2.307140e-01,-8.616000
242,2.420370e+02,41.855808,2.332160e-01,-8.622000
243,2.430370e+02,41.781723,2.357190e-01,-8.628000
244,2.440410e+02,41.707485,2.380990e-01,-8.628000
245,2.450420e+02,41.633183,2.405410e-01,-8.628000
246,2.460410e+02,41.560280,2.429820e-01,-8.634000
247,2.470410e+02,41.484413,2.454840e-01,-8.634000
248,2.480410e+02,41.410965,2.477430e-01,-8.640000
249,2.490410e+02,41.336182,2.500630e-01,-8.646000
250,2.500400e+02,41.258152,2.524430e-01,-8.646000
251,2.510420e+02,41.183872,2.548240e-01,-8.658000
252,2.520410e+02,41.108288,2.571430e-01,-8.664000
253,2.530360e+02,41.035149,2.594010e-01,-8.670000
254,2.540520e+02,40.958187,2.617210e-01,-8.670000
255,2.550520e+02,40.882961,2.639790e-01,-8.676000
256,2.560400e+02,40.807892,2.662370e-01,-8.682000
257,2.570400e+02,40.731857,2.684350e-01,-8.688000
258,2.580410e+02,40.657139,2.706930e-01,-8.694000
259,2.590420e+02,40.584587,2.728900e-01,-8.706000
260,2.600410e+02,40.509811,2.750870e-01,-8.706000
261,2.610390e+02,40.433418,2.772240e-01,-8.712000
262,2.620370e+02,40.358330,2.792380e-01,-8.718000
263,2.630480e+02,40.281334,2.813130e-01,-8.724000
264,2.640400e+02,40.208996,2.832660e-01,-8.730000
265,2.650420e+02,40.135937,2.852800e-01,-8.736000
266,2.660460e+02,40.062260,2.871720e-01,-8.742000
267,2.670430e+02,39.988293,2.891860e-01,-8.748000
268,2.680460e+02,39.905914,2.911400e-01,-8.748000
269,2.690420e+02,39.837570,2.932150e-01,-8.754000
270,2.700420e+02,39.778755,2.951680e-01,-8.760000
271,2.710370e+02,39.739967,2.971820e-01,-8.766000
272,2.720640e+02,39.720387,2.990740e-01,-8.772000
273,2.730400e+02,39.722172,3.008440e-01,-8.772000
274,2.740420e+02,39.744450,3.026750e-01,-8.784000
275,2.750410e+02,39.776398,3.046890e-01,-8.784000
276,2.760430e+02,39.820087,3.065810e-01,-8.790000
277,2.770370e+02,39.865475,3.084740e-01,-8.790000
278,2.780420e+02,39.908119,3.104880e-01,-8.796000
279,2.790430e+02,39.942818,3.125020e-01,-8.802000
280,2.800420e+02,39.966251,3.146380e-01,-8.808000
281,2.810420e+02,39.979572,3.167130e-01,-8.814000
282,2.820410e+02,39.986851,3.186050e-01,-8.814000
